Frequency,Nominal,Min,Max
0.8,306946.444770699,284057.21957564476,332324.6108883831
0.8186343938246033,296663.85128448415,274356.06902278657,321417.37850852875
0.8377028384407197,286649.86156218266,264916.144547273,310786.4683066815
0.8572154441900852,276900.5654156052,255733.50097080323,300427.9532130464
0.877182556914548,267412.05950683565,246804.18360685947,290337.93405496405
0.8976147634415708,258180.44045257324,238124.22306630446,280512.5311636053
0.9185228971975062,249201.79859375293,229689.6307968209,270947.87653251237
0.9399180439516236,240472.21245967003,221496.39536784598,261640.1065727587
0.9618115476939303,231987.74394929156,213540.47950528617,252585.35550383895
0.9842150166499052,223744.43424520944,205817.81787290963,243779.7494135896
1.0071403294353336,215738.3004685334,198324.31559012123,235219.40101397777
1.0305996413545069,207965.3330756361,191055.84746892017,226900.4051128794
1.0546053908451254,200421.49399050482,184008.25794616106,218818.83481469066
1.0791703060733226,193102.71545934182,177177.36168124908,210970.73845560144
1.1043074116823075,186004.89960739287,170558.94478384155,203352.13727200986
1.130030035698203,179123.9186716586,164148.76663119424,195959.02379351406
1.1563518165967415,172455.6158773399,157942.56223063386,188787.36094498594
1.1832867105345652,165995.80692063097,151936.0450791993,181833.08183580256
1.2108489987489657,159740.28201607155,146124.91046963958,175092.09020805135
1.2390532951299842,153684.80846263864,140504.8391902215,168560.26151020374
1.2679145539688899,147825.13367980497,135071.50156438464,162233.4445576437
1.297448077887143,142156.98866237985,129820.56177598341,156107.46373721995
1.3276695259500473,136676.09180137044,124747.68242596932,150178.12170947331
1.3585949219693942,131378.1530172362,119848.52926727752,144441.20255933257
1.390240662999499,126258.87815174102,115118.77606617149,138892.47534398377
1.4226235280311368,121313.97356519091,110554.1095402281,133527.69798533854
1.4557606868879853,116539.15088686127,106150.23432566591,128342.62145386446
1.4896697093302924,111930.13186824277,101902.87792949803,123332.99419065595
1.5243685743705961,107482.65329080778,97807.79562518981,118494.56671530033
1.5598756798064346,103192.4718826762,93860.77525390415,113823.09636847602
1.596209851975102,99055.36920149127,90057.64189697291,109314.3521399861
1.6333903557356217,95067.15644407748,86394.26238894164,104964.11953531038
1.6714369046832298,91223.67914689939,82866.5496442916,100768.20543642995
1.7103696716017838,87520.82174494001,79470.46677463068,96722.44291570454
1.75020929915964,83954.51196032677,76202.03097686748,92822.6959649337
1.7909769108546696,80520.72499569428,73057.31717641279,89064.86410511435
1.8326941222142161,77215.48751100282,70032.4614129047,85444.8868461135
1.8753830522559354,74034.88136607448,67123.66395919218,81958.74796905386
1.91906633521559,70975.04711461677,64327.192167377696,78602.47960791353
1.9637671325480217,68032.18723881624,61639.383038549335,75372.16611045704
2.0095091452076614,65202.5691167161,59056.64551542759,72263.94766211738
2.0563166262150885,62482.52771751917,56575.46249954122,69274.023659868
2.104214393516303,59868.46802267013,54192.39259662854,66398.65582632337
2.1532278431415297,57356.86717304044,51904.07159585369,63634.17105737736
2.2033829626705304,54944.27634476214,49707.21369006625,60976.9639994842
2.2547063450115603,52627.32235825592,47598.61244570018,58423.49935530258
2.307225202501282,50402.709026729455,45575.14153211467,55970.31391880123
2.3609673813331056,48267.21825194901,43633.755221120184,53614.01834302656
2.4159613763216097,46217.710876356134,41771.48866819583,51351.29864563822
2.472236346010869,44251.127301677385,39985.45798749018,49178.91745896132
2.5298221281347,42364.48788502353,38272.860133090515,47093.715032724685
2.5887492554370226,40554.89312416228,36630.972599304725,45092.60999884638
2.6490489718607253,38819.523644119225,35057.15295280795,43172.599908619726
2.710753249113617,37155.639997612125,33548.838209491834,41330.761553435
2.7738948036202493,35560.58229199385,32103.544068734744,39564.25108077494
2.8385071138685998,34031.76965543938,30718.86401758843,37870.303917658406
2.904624438160807,32566.699555048635,29392.46831708403,36246.234513976415
2.972281832777376,31162.946979365664,28122.102882483243,34689.43591831034
3.041515170564485,29818.16349756837,26905.588068881894,33197.37919882415
3.11236115995424,28530.07620724888,25740.817373096634,31767.612721735313
3.184857364427973,27296.486582315283,24625.756062258533,30397.761299662132
3.259042222432897,26115.26923210055,23558.439739000918,29085.525221880715
3.334955067762678,24984.370582281288,22536.97285257265,27828.679178164686
3.412636150412736,23901.807487690592,21559.527164640876,26625.071087482953
3.492126657921322,22865.665786568487,20624.340177971786,25472.620842374436
3.573468737207699,21874.098805239813,19729.713535603514,24369.31897932435
3.656705516918994,20925.325821639417,18874.011397552647,23313.225284950484
3.741881130297579,20017.630495537487,18055.658801532827,22302.467347263995
3.8290407385811003,19149.35927274908,17273.140013609067,21335.23906071552
3.918230554947563,18318.919770047138,16524.996874171877,20409.799093174148
4.009497869018172,17524.779146945963,15809.827144090657,19524.469322424444
4.102891071930912,16765.46246997855,15126.282855396727,18677.63324920347
4.198459681998174,16039.551074563014,14473.068670357912,17867.73439324584
4.296254370962015,15345.68092904132,13848.940252335633,17093.274678259324
4.396326990860989,14682.541004978188,13252.702651364314,16352.812811221143
4.498730601522785,14048.87165733201,12683.20870696426,15644.962660867533
4.603519498697247,13443.463017652128,12139.357470288609,14968.391639746273
4.710749242844703,12865.1534030204,11620.092647318728,14321.819093719983
4.820476688594853,12312.827743037895,11124.4010644566,13704.014702340555
4.932760014891849,11785.41602676239,10651.311157520919,13113.796893071021
5.047658755841537,11281.891771128638,10199.891484835796,12550.031271904132
5.165233832277235,10801.270512031819,9769.249264808526,12011.629072521737
5.285547584060759,10342.608318926592,9358.528938129186,11497.545625755129
5.408663803135845,9905.000333490545,8966.910754490315,11006.778850743634
5.5346477673514825,9487.579332623864,8593.609383524617,10538.367768847873
5.6635662750730935,9089.514315808672,8237.872549495805,10091.39104105852
5.79548768059991,8710.009116633688,7898.979689156011,9664.965529348214
5.930481930407329,8348.301038108186,7576.240632109322,9258.24488215021
6.068620600233459,8003.65951124533,7268.994302999183,8870.41814391065
6.209976933029522,7675.384776295371,6976.60744487474,8500.708388457992
6.3546258777942395,7362.806585958033,6698.473363192584,8148.3713757646
6.502644129312781,7065.282929907988,6434.010690082794,7812.694231547743
6.654110168821354,6782.19878003134,6182.662168755164,7492.994149074059
6.809104305618997,6512.964855902981,5943.893458246934,7188.617112498614
6.9677087196486305,6257.016410237544,5717.191959117823,6898.936641093378
7.130007505069949,6013.812034326086,5502.065661179013,6623.352553805378
7.296086714847262,5782.8324838280805,5298.042014893107,6361.289753738325
7.466034406375912,5563.579525723011,5104.666828690114,6112.197032377487
7.639940688171471,5355.574807734351,4921.503195091617,5875.545893680092
7.8178977676464685,5158.358752110735,4748.130449196818,5650.829398533079
7.999999999999982,4971.489476271335,4584.143163728419,5437.5610305359905
8.186343938246015,4794.541743472958,4429.150185424859,5235.273584592225
8.377028384407177,4627.105947307971,4282.773718055131,5043.518080376966
8.572154441900832,4468.787134460295,4144.648457676177,4861.862703378153
8.77182556914546,4319.204070691118,4014.4207859035187,4689.891776854411
8.976147634415685,4177.988355451762,3891.7480268794125,4527.204768692171
9.18522897197504,4044.7835907814,3776.297773262593,4373.4153377361845
9.399180439516213,3919.2446101961677,3667.747285905269,4228.150424672357
9.618115476939279,3801.036773072804,3565.782970918549,4091.0493929134273
9.842150166499026,3689.835329543026,3470.099936568199,3961.7632251304167
10.071403294353312,3585.3248601265864,3380.401630923212,3839.9537810412367
10.305996413545044,3487.1987932424845,3296.399559455978,3725.2931217752066
10.546053908451228,3395.1590023696895,3217.8130799416554,3617.4629055509577
10.791703060733198,3308.915483025506,3144.369270118553,3516.153858524108
11.043074116823046,3228.186107955926,3073.1168576977866,3421.06532348693
11.300300356982001,3152.69645707197,3006.0202806627167,3331.9048876638376
11.563518165967386,3082.1797168160197,2939.0437014496815,3248.3880891942927
11.832867105345624,3016.376641905279,2876.5570357548127,3170.3038808121137
12.108489987489628,2955.035570876212,2818.680237428288,3104.8866624601087
12.390532951299813,2897.9124856338076,2765.152564990688,3043.5980709073433
12.679145539688868,2844.7711043630866,2715.7206107418074,2986.2162999356315
12.9744807788714,2795.3829967333845,2670.1386184773437,2932.5274775619114
13.276695259500443,2749.5277103353324,2628.1688139122507,2882.325641484422
13.58594921969391,2706.992897723894,2589.5817306167746,2835.412719548659
13.902406629994958,2667.574434258853,2554.156515686538,2791.5985092215797
14.226235280311336,2631.0765180742233,2521.681201382289,2750.7006506760536
14.55760686887982,2597.311744892472,2491.95293142716,2712.544588834398
14.89669709330289,2566.1011519405574,2464.7781333624444,2676.9635205592404
15.243685743705926,2537.2742268348384,2439.9726311614695,2643.798324069528
15.59875679806431,2510.66887889761,2417.36169502499,2612.897468558495
15.962098519750983,2486.131371877453,2396.7800277975266,2584.1169028612912
16.33390355735618,2463.5162184107808,2378.0716896520767,2557.3199228313
16.71436904683226,2442.686037741506,2361.089964525913,2532.377017811091
17.1036967160178,2423.5113791844924,2345.6971732220827,2509.1656972089577
17.502092991596363,2405.870514566487,2331.764439118618,2487.5702987050495
17.90976910854666,2389.649203409109,2319.1714130730816,2467.481780008654
18.326941222142125,2374.740434945901,2307.805964413951,2448.7974963726874
18.753830522559316,2361.0441512109533,2297.56384492301,2431.420966249861
19.19066335215586,2348.4669554262437,2288.348332490051,2415.261627557698
19.637671325480177,2336.9218097771504,2280.0698607185573,2400.2345870193835
20.095091452076574,2326.327726428953,2272.6456402311505,2386.2603649780513
20.56316626215084,2316.6094553287257,2265.999276813311,2373.2646379576463
21.042143935162983,2307.697171981268,2260.060390883076,2361.177981077621
21.53227843141525,2299.526168005983,2254.764242115529,2349.9356122338145
22.033829626705252,2292.0365468913324,2250.0513624089112,2339.477139745236
22.547063450115548,2285.172926979252,2243.9934565342237,2329.7463149456057
23.072252025012762,2278.8841533439395,2238.091939113873,2320.690790977343
23.609673813330996,2273.123019885891,2232.7418323026955,2312.2618888305474
24.159613763216036,2267.8460026478006,2227.8951031267497,2305.991436334714
24.722363460108628,2263.013005076871,2223.5076044081507,2300.7400329515
25.298221281346937,2258.587115709485,2219.5387987712293,2295.8879558190883
25.88749255437016,2254.5343785385253,2215.9514963592756,2291.403862372331
26.490489718607183,2250.8235761399815,2212.711606581725,2287.258852036084
27.107532491136094,2247.426025481581,2209.7879039915706,2283.4262870209004
27.73894803620242,2244.3153862098166,2207.151808209863,2279.88162418611
28.385071138685923,2241.4674811101277,2204.777177665053,2276.6022576348487
29.04624438160799,2238.860128355431,2202.640116796168,2273.567371652364
29.722818327773684,2236.4729850979106,2200.718796276731,2270.7578035598103
30.415151705644774,2234.2874019153805,2198.993285747526,2268.155916028711
31.123611599542322,2232.2862875941237,2197.445398497305,2265.7454783845064
31.84857364427965,2230.4539837126795,2196.058547498414,2263.5115564194693
32.59042222432888,2228.7761484835205,2194.817612186123,2261.440410234254
33.349550677626695,2227.239649310152,2193.708815363811,2259.51939963207
34.126361504127274,2225.832463524233,2192.7196096187704,2257.73689659884
34.92126657921313,2224.543586779582,2191.8385726434285,2256.0822044157053
35.7346873720769,2223.362948596053,2191.055310872495,2254.5454829659006
36.56705516918985,2222.2813345654054,2190.36037086664,2253.117679815772
37.4188113029757,2221.2903147524544,2189.7451578965,2251.790466668786
38.2904073858109,2220.382177847382,2189.2018612061993,2250.556180811338
39.18230554947552,2219.549870648445,2188.723385462319,2249.407771189594
40.094978690181605,2218.7869424780324,2188.303287921687,2248.3387487770965
41.028910719309,2218.0874941586953,2187.9357208789966,2247.343140913199
41.98459681998162,2217.44613119907,2187.615378982649,2246.41544931236
42.96254370962002,2216.8579208623937,2187.3374510340523,2245.5506114637124
43.96326990860976,2216.3183528122822,2187.0975759116623,2244.7439651590385
44.987306015227716,2215.8233030516058,2186.891802286064,2243.99121590523
46.035194986972336,2215.3690008904464,2186.7165518164175,2243.2884069944407
47.10749242844689,2214.95199869831,2186.5685855412858,2242.6318920213603
48.20476688594839,2214.569144213856,2186.444973198457,2242.0183096524343
49.327600148918336,2214.2175552025165,2186.343065228631,2241.4445604663197
50.47658755841522,2213.8945962683697,2186.260467236886,2240.9077856984404
51.652338322772195,2213.5978576416483,2186.1950167036493,2240.405347735289
52.855475840607426,2213.3251357772806,2186.1447617535146,2239.934812215968
54.08663803135828,2213.074415612876,2186.1079418057043,2239.493931609611
55.34647767351465,2212.84385434675,2186.082969944335,2239.080630147605
56.63566275073075,2212.6317666077675,2186.0684168599514,2238.692989999166
57.954876805998914,2212.436610899282,2186.062996226095,2238.329238587687
59.3048193040731,2212.256977209034,2186.0655513860606,2237.9877369535434
60.68620600233439,2212.0915756858176,2186.0750432354644,2237.666969076651
62.09976933029502,2211.93922629193,2186.0905391959295,2237.3655320791277
63.54625877794219,2211.798849348007,2186.1112031840826,2237.0821272348944
65.0264412931276,2211.6694568938124,2186.1362864882326,2236.815551719094
66.54110168821333,2211.5501447949964,2186.1651194726232,2236.5646910356613
68.09104305618976,2211.4400855317076,2186.1971040360386,2236.3285120665637
69.67708719648608,2211.338521610397,2186.2317067578797,2236.106056690815
71.30007505069926,2211.244759545128,2186.26845267061,2235.8964359257598
72.96086714847239,2211.158164359258,2186.3069196028036,2235.698824547021
74.66034406375888,2211.07815456257,2186.3467330418807,2235.5124561471866
76.39940688171447,2211.0041975627732,2186.387561470058,2235.336618596613
78.17897767646444,2210.9358054737913,2186.429112131133,2235.170649872817
79.99999999999957,2210.8725312865213,2186.471127189435,2235.013934227738
81.86343938245989,2210.813965370657,2186.5133802456835,2234.8658986646965
83.7702838440715,2210.759732278905,2186.5556731775937,2234.7260096992995
85.72154441900804,2210.7094878273842,2186.5978332759223,2234.5937703806603
87.71825569145432,2210.6629164282563,2186.6397106492436,2234.4687175513072
89.76147634415658,2210.6197286527276,2186.681175873103,2234.3504193259914
91.8522897197501,2210.579659004416,2186.7221178613618,2234.238472771232
93.99180439516184,2210.542463884857,2186.7624419395374,2234.1325017690165
96.18115476939249,2210.5079197344603,2186.802068101706,2234.032155049415
98.42150166498996,2210.4758213337077,2186.8409294342273,2233.9371043782053
100.7140329435328,2210.445980250667,2186.8789706909984,2233.8470428867354
103.05996413545013,2210.418223422163,2186.9161470063555,2233.7616835323424
105.46053908451196,2210.392391856974,2186.9524227329525,2233.68075767863
107.91703060733167,2210.3683394504947,2186.9877703931047,2233.6040137857935
110.43074116823014,2210.345931901192,2187.0221697331153,2233.531216202024
113.00300356981968,2210.325045720026,2187.0556068710302,2233.4621440477604
115.63518165967352,2210.305567324785,2187.0880735291526,2233.3965901852516
118.32867105345589,2210.287392211977,2187.119566343429,2233.3343602665273
121.08489987489592,2210.270424199556,2187.1500862424923,2233.2752718534457
123.90532951299775,2210.254574734359,2187.1796378898653,2233.21915360402
126.7914553968883,2210.2397622586477,2187.208229183362,2233.165844519711
129.7448077887136,2210.2259116306514,2187.2358708062966,2233.1151932488037
132.76695259500403,2210.2129535944355,2187.2625758255836,2233.0670574414135
135.8594921969387,2210.2008242948427,2187.288359332283,2233.021303152005
139.02406629994917,2210.189464833608,2187.3132381205146,2232.9778042856833
142.26235280311292,2210.178820863106,2187.3372304010836,2232.9364420848037
145.57606868879773,2210.168842214478,2187.3603555464524,2232.8971046527245
148.96697093302842,2210.159482557179,2187.3826338640406,2232.859686511825
152.43685743705876,2210.1506990872494,2187.40408639507,2232.824088193096
155.98756798064258,2210.142452241827,2187.4247347364862,2232.790215854875
159.6209851975093,2210.1347054376542,2187.4446008836544,2232.757980928475
163.33903557356123,2210.1274248315294,2187.463707091782,2232.7272997886334
167.143690468322,2210.1205791007956,2187.482075754213,2232.698093446906
171.0369671601774,2210.114139242178,2187.4997292958697,2232.6702872662295
175.020929915963,2210.108078387388,2187.516690080332,2232.6438106950923
179.09769108546593,2210.102371634054,2187.532980329157,2232.6185970198067
183.26941222142057,2210.0969958906903,2187.5486220521725,2232.59458313354
187.53830522559247,2210.0919297344894,2187.563636987605,2232.5717093208614
191.9066335215579,2210.0871532808505,2187.5780465510165,2232.5499190566543
196.37671325480105,2210.082648063665,2187.5918717921086,2232.529158818332
200.950914520765,2210.078396925407,2187.605133358557,2232.5093779103913
205.63166262150764,2210.0743839162446,2187.617851466094,2232.4905283004064
210.42143935162906,2210.070594201372,2187.6300458741816,2232.4725644656373
215.32278431415173,2210.067013975884,2187.641735866616,2232.4554432494806
220.33829626705176,2210.063630386561,2187.6529402365336,2232.4391237270834
225.4706345011547,2210.060431459973,2187.6636772752872,2232.423567079448
230.72252025012682,2210.057406036373,2187.6739647647482,2232.4087364754405
236.09673813330915,2210.0545437089017,2187.6838199726235,2232.3945969611586
241.59613763215953,2210.051834767658,2187.69325965041,2232.3811153561282
247.22363460108542,2210.0492701482153,2187.702300033659,2232.368260155878
252.98221281346846,2210.046841384236,2187.7109568442575,2232.356001440448
258.87492554370067,2210.044540563823,2187.719245294435,2232.344310788415
264.90489718607085,2210.0423602893147,2187.727180092287,2232.3331611960953
271.07532491136,2210.040293640224,2187.734775448577,2232.322527001547
277.3894803620232,2210.0383341390752,2187.742045084624,2232.3123838130628
283.8507113868582,2210.0364757198927,2187.749002241126,2232.302708441865
290.46244381607886,2210.034712699124,2187.7556596877344,2232.2934788387165
297.22818327773575,2210.0330397488033,2187.7620297332637,2232.2846740342047
304.1515170564466,2210.0314518717696,2187.768124236415,2232.276274082445
311.23611599542204,2210.029944378766,2187.7739546168873,2232.2682600079997
318.4857364427953,2210.0285128672876,2187.7795318668013,2232.260613755806
325.9042222432876,2210.0271532020074,2187.784866562343,2232.253318143915
333.4955067762657,2210.0258614966842,2187.789968875547,2232.246356818873
341.2636150412714,2210.0246340974054,2187.7948485861643,2232.239714213578
349.21266579213,2210.0234675670868,2187.7995150935512,2232.2333755074637
357.34687372076763,2210.0223586710968,2187.80397742853,2232.227326588861
365.67055169189706,2210.0213043639505,2187.808244265179,2232.221554019407
