Frequency,Nominal,Min,Max
0.8,-0.1765697154196324,-0.1872540317952755,-0.16606232785527122
0.8186343938246033,-0.18068318572835346,-0.1916164938923644,-0.1699309431726596
0.8377028384407197,-0.1848925163765397,-0.19608062481972063,-0.17388970780880483
0.8572154441900852,-0.1891999434773876,-0.2006487966096709,-0.17794072430671484
0.877182556914548,-0.1936077554608171,-0.20532343682117885,-0.18208614437634163
0.8976147634415708,-0.19811829430842293,-0.2101070298525965,-0.18632817005348273
0.9185228971975062,-0.20273395681832365,-0.21500211828631938,-0.1906690548866314
0.9399180439516236,-0.20745719590067466,-0.22001130426617002,-0.19511110515248697
0.9618115476939303,-0.21229052190464076,-0.22513725090836273,-0.19965668110086374
0.9842150166499052,-0.21723650397763872,-0.23038268374691917,-0.20430819822975085
1.0071403294353336,-0.22229777145768873,-0.23575039221443422,-0.2090681285913022
1.0305996413545069,-0.22747701529973402,-0.24124323115911112,-0.21393900212955486
1.0546053908451254,-0.23277698953681267,-0.24686412239901384,-0.21892340805069732
1.0791703060733226,-0.23820051277698806,-0.25261605631450346,-0.22402399622673091
1.1043074116823075,-0.2437504697369725,-0.25850209347985575,-0.22924347863339586
1.130030035698203,-0.24942981281339754,-0.26452536633507584,-0.23458463082324965
1.1563518165967415,-0.25524156369271495,-0.2706890808989529,-0.2400502934348163
1.1832867105345652,-0.26118881500072894,-0.2769965185244174,-0.24564337373874462
1.2108489987489657,-0.26727473199279317,-0.2834510376972889,-0.25136684722194297
1.2390532951299842,-0.2735025542857218,-0.29005607587951643,-0.2572237592106762
1.2679145539688899,-0.27987559763248687,-0.29681515139803727,-0.2632172265336396
1.297448077887143,-0.28639725574080094,-0.3037318653803891,-0.26935043922604696
1.3276695259500473,-0.2930710021366942,-0.3108099037382267,-0.27562666227578975
1.3585949219693942,-0.2999003920742174,-0.31805303919989664,-0.2820492374127508
1.390240662999499,-0.3068890644924154,-0.32546513339323013,-0.2886215849423721
1.4226235280311368,-0.31404074402072013,-0.33305013897970426,-0.29534720562459715
1.4557606868879853,-0.3213592430339243,-0.3408121018411103,-0.3022296825993204
1.4896697093302924,-0.32884846375788934,-0.34875516331984857,-0.30927268335949326
1.5243685743705961,-0.3365124004271347,-0.356883562513928,-0.3164799617730395
1.5598756798064346,-0.3443551414954422,-0.3652016386277047,-0.3238553601547377
1.596209851975102,-0.3523808719005728,-0.3737138333793267,-0.33140281138922656
1.6333903557356217,-0.360593875384161,-0.38242469346576524,-0.33912634110627327
1.6714369046832298,-0.3689985368677911,-0.39133887308620613,-0.3470300699094291
1.7103696716017838,-0.37759934488618746,-0.4004611365244308,-0.35511821565916046
1.75020929915964,-0.3864008940783505,-0.4097963607906518,-0.36339509581150253
1.7909769108546696,-0.39540788773735847,-0.41934953832305216,-0.37186512981321673
1.8326941222142161,-0.40462514041938635,-0.42912577974901833,-0.3805328415543511
1.8753830522559354,-0.41405758061232334,-0.4391303167057494,-0.38940286187900774
1.91906633521559,-0.42371025346412117,-0.4493685047195419,-0.39847993115497404
1.9637671325480217,-0.4335883235707383,-0.45984582614259817,-0.40776890190272747
2.0095091452076614,-0.4436970778231931,-0.4705678931456701,-0.4172747414841071
2.0563166262150885,-0.45404192831283996,-0.4815404507641987,-0.4270025348507075
2.104214393516303,-0.4646284152934802,-0.49276937999484816,-0.43695748735174245
2.1532278431415297,-0.47546221019834467,-0.5042607009384336,-0.4471449276007745
2.2033829626705304,-0.4865491187092838,-0.5160205759841672,-0.4575703104002543
2.2547063450115603,-0.4978950838746743,-0.5280553130288943,-0.4682392197223102
2.307225202501282,-0.5095061892715832,-0.540371368723521,-0.47915737174359463
2.3609673813331056,-0.5213886622065789,-0.5529753517370994,-0.49033061793126614
2.4159613763216097,-0.5335488769482236,-0.5658740260270205,-0.5017649481763061
2.472236346010869,-0.5459933579827113,-0.5790743141014084,-0.5134664939693452
2.5298221281347,-0.5587287832822423,-0.592583300257058,-0.5254415316129598
2.5887492554370226,-0.5717619875735787,-0.606408233773075,-0.5376964854629696
2.6490489718607253,-0.5850999655916839,-0.6205565320366657,-0.5502379311896064
2.710753249113617,-0.5987498753004254,-0.6350357835732401,-0.5630725990474611
2.7738948036202493,-0.6127190410588934,-0.6498537509480395,-0.5762073771408409
2.8385071138685998,-0.627014956707942,-0.6650183735007789,-0.5896493146685073
2.904624438160807,-0.6416452885469787,-0.6805377698682191,-0.6034056251286792
2.972281832777376,-0.6566178781657459,-0.6964202402420308,-0.6174836894615923
3.041515170564485,-0.6719407450897436,-0.7126742683006576,-0.6318910591027574
3.11236115995424,-0.6876220891909522,-0.7293085227439859,-0.6466354589152523
3.184857364427973,-0.703670292807467,-0.7463318583483521,-0.6617247899638367
3.259042222432897,-0.7200939225064749,-0.7637533164465979,-0.6771671320873025
3.334955067762678,-0.7369017304145018,-0.7815821247233347,-0.6929707462181341
3.412636150412736,-0.7541026550268988,-0.7998276961991589,-0.7091440763901449
3.492126657921322,-0.7717058213949758,-0.8184996272590623,-0.7256957513651412
3.573468737207699,-0.7897205405738137,-0.8376076945595369,-0.7426345857987038
3.656705516918994,-0.8081563081964609,-0.8571618506257186,-0.7599695808526812
3.741881130297579,-0.8270228020207306,-0.877172217924161,-0.777709924147852
3.8290407385811003,-0.8463298782730206,-0.8976490811684029,-0.7958649889341942
3.918230554947563,-0.8660875665892549,-0.918602877583222,-0.8144443323381727
4.009497869018172,-0.8863060633261299,-0.9400441848194117,-0.8334576925262079
4.102891071930912,-0.9069957229861321,-0.9619837061740228,-0.8529149846008612
4.198459681998174,-0.9281670474672863,-0.984432252731529,-0.872826295021101
4.296254370962015,-0.9498306728132448,-1.0074007219995171,-0.8932018743101621
4.396326990860989,-0.9719973531012491,-1.0309000725687787,-0.9140521277838628
4.498730601522785,-0.9946779410648965,-1.0549412942827892,-0.9353876039987785
4.603519498697247,-1.0178833650058818,-1.0795353733564435,-0.9572189805833908
4.710749242844703,-1.0416246015045354,-1.1046932518399024,-0.9795570470763766
4.820476688594853,-1.0659126433938448,-1.1304257807821847,-1.0024126843548204
4.932760014891849,-1.0907584624168427,-1.1567436664128834,-1.025796840191771
5.047658755841537,-1.1161729659442545,-1.1836574086318064,-1.04972050043784
5.165233832277235,-1.1421669470899936,-1.2111772310787168,-1.0741946552763861
5.285547584060759,-1.1687510275289326,-1.2393130020526772,-1.099230259957434
5.408663803135845,-1.1959355922972568,-1.2680741455673936,-1.1248381893735067
5.5346477673514825,-1.2237307158442707,-1.2974695418707758,-1.151029185803003
5.6635662750730935,-1.2521460786100223,-1.327507416829678,-1.1778137991162696
5.79548768059991,-1.2811908734304907,-1.3581952196910105,-1.2052023187192236
5.930481930407329,-1.310873701127008,-1.3895394888850623,-1.2332046965031287
6.068620600233459,-1.3412024547253203,-1.4215457057429508,-1.261830460081372
6.209976933029522,-1.372184191878988,-1.4542181362643718,-1.2910886156300652
6.3546258777942395,-1.4038249952487134,-1.4875596614000313,-1.3209875397148565
6.502644129312781,-1.4361298208205593,-1.52157159670967,-1.351534859587907
6.654110168821354,-1.469102334438373,-1.55625350272323,-1.382737321583496
6.809104305618997,-1.5027447371841756,-1.5916029878679483,-1.4146006474351323
6.9677087196486305,-1.5370575806682443,-1.6276155064219018,-1.4471293785882622
7.130007505069949,-1.5720395737884714,-1.6642841546031835,-1.480326708896665
7.296086714847262,-1.6076873830829497,-1.7015994685850733,-1.5141943064722292
7.466034406375912,-1.643995429422135,-1.7395492289155756,-1.5487321259093108
7.639940688171471,-1.6809556844528848,-1.7781182764810382,-1.5839382126257169
7.8178977676464685,-1.7185574708945746,-1.817288345746964,-1.6198085016474144
7.999999999999982,-1.7567872714681434,-1.8570379214869652,-1.6563366138030509
8.186343938246015,-1.7956285518752721,-1.8973421255207976,-1.693513652970474
8.377028384407177,-1.8350616037926495,-1.938172640070897,-1.731328008706544
8.572154441900832,-1.875063414255401,-1.9794976741630257,-1.7697651692618186
8.77182556914546,-1.9156075680208744,-2.0212819789976186,-1.8088075505935532
8.976147634415685,-1.9566641894761685,-2.063486917375005,-1.8484343474974465
9.18522897197504,-1.9981999303320832,-2.1060705910599813,-1.8886214133292134
9.399180439516213,-2.040178008695143,-2.148988028433672,-1.929341174927683
9.618115476939279,-2.0825583041067506,-2.1921914329454344,-1.9705625892298744
9.842150166499026,-2.1252975117848845,-2.2356304908156455,-2.012251147640346
10.071403294353312,-2.1683493576256625,-2.2792527342494573,-2.0543689334494015
10.305996413545044,-2.2116648735746467,-2.323003954221405,-2.0968747364729357
10.546053908451228,-2.2551927308445006,-2.3668286548138915,-2.139724227619781
10.791703060733198,-2.29887962624479,-2.4106705392738963,-2.182870194316204
11.043074116823046,-2.3426707147280825,-2.454473016516924,-2.2262628356967618
11.300300356982001,-2.3865100792791654,-2.4981797158577064,-2.2698501142982055
11.563518165967386,-2.430341227613217,-2.5417349973533616,-2.3135781587840873
11.832867105345624,-2.474107603920579,-2.5850844453361335,-2.3573917101127977
12.108489987489628,-2.5177531031894063,-2.6281753334753253,-2.401234601676469
12.390532951299813,-2.561222575505294,-2.6709570509857747,-2.4450502624107426
12.679145539688868,-2.6044623081791043,-2.7133814813011043,-2.4887822308141665
12.9744807788714,-2.6474204745572703,-2.7554033265356734,-2.5323746672986918
13.276695259500443,-2.690047539849745,-2.79698037323671,-2.575772852357839
13.58594921969391,-2.7322966161642928,-2.8380736971425633,-2.6189236586821076
13.902406629994958,-2.774123761035498,-2.8786478067888357,-2.661775986524659
14.226235280311336,-2.8154882159473766,-2.9186707277349124,-2.7042811532394166
14.55760686887982,-2.856352583537684,-2.95811403083796,-2.7463932298647014
14.89669709330289,-2.8966829442220643,-2.9969528093271234,-2.7880693197776303
15.243685743705926,-2.9364489147912876,-3.0351656104032587,-2.829269776662059
15.59875679806431,-2.975623653046509,-3.0727343277107253,-2.869958361187523
15.962098519750983,-3.0141838137060155,-3.109644061320356,-2.9101023377771424
16.33390355735618,-3.05210946163019,-3.145882951865426,-2.949672514561887
16.71436904683226,-3.089383948881168,-3.1814419952339117,-2.988643231018008
17.1036967160178,-3.12599376229064,-3.216314843793832,-3.0269922988337363
17.502092991596363,-3.1619283480972085,-3.250497599567199,-3.0647009022468703
17.90976910854666,-3.1971799198851656,-3.2839886041219666,-3.101753464455349
18.326941222142125,-3.231743255563065,-3.316788229263989,-3.138137486764199
18.753830522559316,-3.265615488515282,-3.3488986719190423,-3.173843366941147
19.19066335215586,-3.2987958973901033,-3.3803237559269066,-3.208864202862631
19.637671325480177,-3.331285698294398,-3.411068742846515,-3.243195586995326
20.095091452076574,-3.3630878424806205,-3.4411401533072006,-3.276835396626454
20.56316626215084,-3.394206821961916,-3.470545599944167,-3.3097835840743492
21.042143935162983,-3.424648484893245,-3.4992936325296804,-3.342041970417071
21.53227843141525,-3.4544198620218936,-3.52739359555426,-3.3736140456016392
22.033829626705252,-3.48352900504527,-3.5548554982211407,-3.404504777162357
22.547063450115548,-3.5119848373186544,-3.5816898965868766,-3.4347204291991593
23.072252025012762,-3.5397970170286834,-3.607907787404944,-3.464268392755166
23.609673813330996,-3.566975812685247,-3.63352051310049,-3.493157028290797
24.159613763216036,-3.5935319905793497,-3.6585396772160497,-3.5213955205798957
24.722363460108628,-3.619476713700588,-3.6829770696133357,-3.5489937460484167
25.298221281346937,-3.6448214514981494,-3.7068446006889513,-3.5759621523333203
25.88749255437016,-3.669577899796831,-3.7301542438563686,-3.6023116496521856
26.490489718607183,-3.693757910137901,-3.752917985557948,-3.628053513435736
27.107532491136094,-3.717373427797787,-3.7751477820948685,-3.653199297579049
27.73894803620242,-3.740436437740268,-3.796855522595999,-3.6777607576058307
28.385071138685923,-3.7629589177754035,-3.8180529974861255,-3.7017497830074264
29.04624438160799,-3.7849527982270295,-3.838751871857059,-3.7251783380085275
29.722818327773684,-3.806429927446929,-3.858963663190182,-3.748058410019697
30.415151705644774,-3.827402042555088,-3.8786997229244413,-3.770401965058494
31.123611599542322,-3.8478807448296575,-3.8979712214085316,-3.792220909452511
31.84857364427965,-3.8678774792155957,-3.916789135819269,-3.813527057175845
32.59042222432888,-3.887403517466225,-3.9351642406693204,-3.8343321022130525
33.349550677626695,-3.906469944476091,-3.9531071005661556,-3.8546475953893653
34.126361504127274,-3.9250876474058907,-3.970628064920124,-3.874484925151423
34.92126657921313,-3.943267307240321,-3.9877372643328473,-3.8938553018277435
35.7346873720769,-3.9610193924572394,-4.0044446084275265,-3.912769744941786
36.56705516918985,-3.9783541545213312,-4.020759784910577,-3.931239073192093
37.4188113029757,-3.9952816249474514,-4.0366922596790475,-3.9492738967532928
38.2904073858109,-4.0118116137080735,-4.052251277810951,-3.9668846115883296
39.18230554947552,-4.027953708785818,-4.0674458652959125,-3.9840813954961796
40.094978690181605,-4.043717276695986,-4.082284831381639,-4.000874205650356
41.028910719309,-4.059111463825608,-4.096776771427901,-4.0172727774118355
41.98459681998162,-4.074145198454793,-4.110930070174015,-4.033286624225713
42.96254370962002,-4.088827193343401,-4.124752905338454,-4.048925038434016
43.96326990860976,-4.103165948781333,-4.138253251480459,-4.064197092857897
44.987306015227716,-4.117169756014325,-4.151438884063286,-4.079111643021038
46.035194986972336,-4.130846700969066,-4.164317383667412,-4.093677329902569
47.10749242844689,-4.144204668212086,-4.176896140309562,-4.107902583122588
48.20476688594839,-4.157251345086061,-4.189182357830021,-4.121795624476335
49.327600148918336,-4.169994225975376,-4.201183058316472,-4.135364471744553
50.47658755841522,-4.182440616659892,-4.2129050865375985,-4.148616942717703
51.652338322772195,-4.194597638722054,-4.224355114364074,-4.161560659380576
52.855475840607426,-4.206472233977934,-4.23553964515826,-4.174203052211609
54.08663803135828,-4.218071168907465,-4.246465018117294,-4.186551364558043
55.34647767351465,-4.229401039063239,-4.257137412556959,-4.198612657053971
56.63566275073075,-4.240468273440743,-4.267562852126223,-4.2103938120535105
57.954876805998914,-4.251279138795986,-4.277747208944351,-4.221901538055802
59.3048193040731,-4.261839743899074,-4.287696207654326,-4.233142374102443
60.68620600233439,-4.272156043714572,-4.297415429387765,-4.244122694131324
62.09976933029502,-4.282233843501391,-4.306910315637866,-4.254848711273711
63.54625877794219,-4.292078802826638,-4.3161861720379795,-4.265326482083969
65.0264412931276,-4.301696439489238,-4.325248172044316,-4.275561910693409
66.54110168821333,-4.311092133350353,-4.3341013605221,-4.285560752881621
68.09104305618976,-4.320271130068632,-4.342750657235105,-4.2953286200601895
69.67708719648608,-4.329238544739172,-4.351200860239048,-4.304870983165051
71.30007505069926,-4.337999365435792,-4.3594566491797675,-4.314193176454875
72.96086714847239,-4.346558456656814,-4.367522588497456,-4.323300401213778
74.66034406375888,-4.354920562675034,-4.375403130538542,-4.332197729357541
76.39940688171447,-4.363090310792975,-4.383102618577004,-4.340890106943122
78.17897767646444,-4.371072214504837,-4.390625289747103,-4.349382357581826
79.99999999999957,-4.378870676566826,-4.397975277889682,-4.357679185756978
81.86343938245989,-4.386489991977758,-4.405156616314228,-4.365785180047299
83.7702838440715,-4.393934350871968,-4.412173240479012,-4.373704816257483
85.72154441900804,-4.4012078413267215,-4.419028990591643,-4.381442460457752
87.71825569145432,-4.408314452086368,-4.425727614132399,-4.389002371934322
89.76147634415658,-4.41525807520555,-4.432272768302718,-4.3963887060528695
91.8522897197501,-4.4220425086138375,-4.4386680224011865,-4.403605517037212
93.99180439516184,-4.428671458604136,-4.444916860129403,-4.410656760665463
96.18115476939249,-4.435148542247233,-4.451022681829985,-4.417546296886021
98.42150166498996,-4.44147728973485,-4.456988806659024,-4.424277892355695
100.7140329435328,-4.447661146653498,-4.462818474695189,-4.4308552229023945
103.05996413545013,-4.453703476191437,-4.468514848987683,-4.437281875914686
105.46053908451196,-4.459607561280988,-4.474081017545137,-4.443561352660591
107.91703060733167,-4.465376606678388,-4.479519995267559,-4.449697070537913
110.43074116823014,-4.471013740983333,-4.484834725823294,-4.455692365258371
113.00300356981968,-4.476522018600305,-4.4900280834730015,-4.461550492967771
115.63518165967352,-4.4819044216437245,-4.495102874842499,-4.4672746323043775
118.32867105345589,-4.487163861788883,-4.500061840646352,-4.472867886397625
121.08489987489592,-4.492303182070593,-4.5049076573639555,-4.478333284809222
123.90532951299775,-4.49732515863142,-4.509642938869857,-4.4836737854186755
126.7914553968883,-4.502232502421274,-4.5142702380199875,-4.488892276255162
129.7448077887136,-4.507027860850124,-4.518792048195411,-4.4939915772776695
132.76695259500403,-4.511713819395537,-4.5232108048051725,-4.498974442105213
135.8594921969387,-4.516292903166631,-4.5275288867497645,-4.503843559698929
139.02406629994917,-4.520767578426089,-4.531748617846674,-4.508601555997734
142.26235280311292,-4.525140254071708,-4.535872268219459,-4.513250995509258
145.57606868879773,-4.529413283079002,-4.539902055651735,-4.51779438285761
148.96697093302842,-4.533588963906286,-4.543840146907408,-4.5222341642895625
152.43685743705876,-4.537669541863632,-4.547688659018497,-4.526572729140667
155.98756798064258,-4.5416572104470525,-4.55144966054179,-4.530812411262736
159.6209851975093,-4.545554112639218,-4.555125172785615,-4.534955490414114
163.33903557356123,-4.549362342177996,-4.558717171007913,-4.539004193614111
167.143690468322,-4.553083944794034,-4.562227585586825,-4.542960696462913
171.0369671601774,-4.556720919418611,-4.565658303164954,-4.546827124428261
175.020929915963,-4.56027521936292,-4.56901116776844,-4.550605554100149
179.09769108546593,-4.563748753469952,-4.572287981901995,-4.554298014414747
183.26941222142057,-4.56714338724008,-4.575490507620988,-4.55790648784874
187.53830522559247,-4.570460943931486,-4.578620467581692,-4.561432911585227
191.9066335215579,-4.573703205636461,-4.581679546070774,-4.564879178652301
196.37671325480105,-4.576871914334703,-4.584669390015106,-4.568247139035423
200.950914520765,-4.579968772924615,-4.587591609972991,-4.571538600764639
205.63166262150764,-4.582995446233676,-4.590447781107838,-4.574755330977728
210.42143935162906,-4.58595356200889,-4.5932394441454,-4.5778990569602716
215.32278431415173,-4.588844711888356,-4.595968106315633,-4.580971467163719
220.33829626705176,-4.591670452354964,-4.5986352422802526,-4.583974212202411
225.4706345011547,-4.594432305673228,-4.60124229504711,-4.586908905830573
230.72252025012682,-4.597131760810301,-4.603790676872462,-4.589777125900278
236.09673813330915,-4.5997702743421485,-4.606281770152291,-4.592580415301338
241.59613763215953,-4.602349271345961,-4.608716928303796,-4.595320282884123
247.22363460108542,-4.604870146279789,-4.61109747663825,-4.597998204366267
252.98221281346846,-4.607334263850509,-4.61342471322639,-4.6006156232242565
258.87492554370067,-4.609742959871129,-4.615699909757611,-4.603173951570878
264.90489718607085,-4.61209754210857,-4.617924312394187,-4.605674571019519
271.07532491136,-4.614399291123007,-4.620099142621865,-4.60811883353632
277.3894803620232,-4.616649461099911,-4.622225598098164,-4.610508062281206
