Frequency,Nominal,Min,Max
0.8,0.03512742876170469,0.03725300596763129,0.0330370504243917
0.8186343938246033,0.035127551882971224,0.037253152824949405,0.033037152841627795
0.8377028384407197,0.03512768080958088,0.037253306605352164,0.03303726008866222
0.8572154441900852,0.03512781581482585,0.03725346763443067,0.033037372393031596
0.877182556914548,0.03512795718476386,0.03725363625292709,0.03303748999293246
0.8976147634415708,0.03512810521879627,0.03725381281741125,0.03303761313770928
0.9185228971975062,0.03512826023026949,0.03725399770098297,0.03303774208836313
0.9399180439516236,0.0351284225470997,0.037254191293999865,0.03303787711808108
0.9618115476939303,0.03512859251242184,0.037254394004831264,0.03303801851278729
0.9842150166499052,0.035128770485262556,0.03725460626063754,0.03303816657171586
1.0071403294353336,0.035128956841237555,0.037254828508175054,0.03303832160800609
1.0305996413545069,0.035129151973273244,0.037255061214625546,0.033038483949320345
1.0546053908451254,0.03512935629235256,0.03725530486844973,0.033038653938484715
1.0791703060733226,0.03512957022828427,0.03725555998026334,0.03303883193415242
1.1043074116823075,0.035129794230495566,0.037255827083734316,0.03303901831149033
1.130030035698203,0.0351300287688464,0.03725610673649877,0.03303921346288774
1.1563518165967415,0.03513027433446495,0.037256399521093386,0.033039417798687465
1.1832867105345652,0.0351305314406016,0.03725670604590045,0.033039631747938114
1.2108489987489657,0.035130800623500054,0.03725702694610188,0.033039855759166896
1.2390532951299842,0.035131082443282294,0.037257362884636894,0.033040090301171325
1.2679145539688899,0.03513137748484397,0.03725771455315751,0.03304033586382811
1.297448077887143,0.03513168635875619,0.037258082672974514,0.03304059295891715
1.3276695259500473,0.035132009702168336,0.037258467995985395,0.03304086212095739
1.3585949219693942,0.03513234817970593,0.03725887130557392,0.03304114390805155
1.390240662999499,0.0351327024843561,0.0372592934174695,0.03304143890273509
1.4226235280311368,0.03513307333833175,0.03725973518055194,0.033041747712824455
1.4557606868879853,0.03513346149390436,0.03726019747758503,0.03304207097225839
1.4896697093302924,0.03513386773419291,0.03726068122585974,0.033042409341924976
1.5243685743705961,0.03513429287389461,0.03726118737772419,0.03304276351046567
1.5598756798064346,0.035134737759940936,0.03726171692097402,0.03304313419504595
1.596209851975102,0.035135203272058824,0.037262270879072704,0.0330435221420806
1.6333903557356217,0.035135690323214605,0.03726285031116645,0.03304392812789921
1.6714369046832298,0.035136199859913966,0.03726345631185255,0.033044352959335374
1.7103696716017838,0.03513673286232717,0.03726409001065396,0.03304479747421999
1.75020929915964,0.03513729034420359,0.03726475257114552,0.033045262541756264
1.7909769108546696,0.03513787335253504,0.03726544518966931,0.03304574906275011
1.8326941222142161,0.03513848296691943,0.0372661690935664,0.03304625796966512
1.8753830522559354,0.035139120298570796,0.03726692553884272,0.033046790226467726
1.91906633521559,0.03513978648891205,0.03726771580717362,0.03304734682822082
1.9637671325480217,0.03514048270767851,0.03726854120213824,0.03304792880037991
2.0095091452076614,0.0351412101504485,0.03726940304455932,0.03304853719773716
2.0563166262150885,0.0351419700355065,0.03727030266680598,0.03304917310295137
2.104214393516303,0.035142763599928975,0.03727124140589669,0.033049837624592474
2.1532278431415297,0.03514359209476861,0.03727222059521758,0.03305053189461906
2.2033829626705304,0.03514445677919446,0.03727324155464462,0.03305125706519441
2.2547063450115603,0.035145358913425136,0.03727430557882949,0.03305201430473451
2.307225202501282,0.03514629975026993,0.037275413923376556,0.03305280479306466
2.3609673813331056,0.035147280525067,0.03727656778860082,0.033053629715545055
2.4159613763216097,0.03514830244377846,0.037277768300515775,0.033054490256005306
2.472236346010869,0.035149366668970256,0.03727901648865363,0.0330553875883058
2.5298221281347,0.03515047430336748,0.037280313260268046,0.03305632286631903
2.5887492554370226,0.03515162637063505,0.037281659370411904,0.033057297212094904
2.6490489718607253,0.03515282379298734,0.03728305538731733,0.033058311701943205
2.710753249113617,0.03515406736517926,0.03728450165243352,0.033059367350129536
2.7738948036202493,0.03515535772437286,0.03728599823439784,0.03306046508984179
2.8385071138685998,0.0351566953153105,0.03728754487612704,0.03306160575103835
2.904624438160807,0.03515808035015352,0.03728914093411805,0.033062790034739685
2.972281832777376,0.035159512762266955,0.03729078530894022,0.03306401848326815
3.041515170564485,0.03516099215314321,0.03729247636578392,0.03306529144587892
3.11236115995424,0.035162517731562114,0.03729421184380154,0.03306660903915525
3.184857364427973,0.0351640882439784,0.037295988752838474,0.03306797110146457
3.259042222432897,0.03516570189501355,0.037297803256001676,0.033069377140687126
3.334955067762678,0.03516735625680257,0.0372996505363523,0.03307082627433583
3.412636150412736,0.03516904816581097,0.03730152464583815,0.03307231716108324
3.492126657921322,0.03517077360559151,0.03730341833440125,0.0330738479226006
3.573468737207699,0.03517252757379331,0.03730532285700768,0.03307541605449233
3.656705516918994,0.035174303931571775,0.0373072277561535,0.033077018324978634
3.741881130297579,0.03517609523337305,0.03730912061720385,0.03307865065983807
3.8290407385811003,0.03517789253488779,0.03731098679372888,0.03308030801197254
3.918230554947563,0.03517968517678401,0.037312809099812036,0.03308198421379859
4.009497869018172,0.03518146054164487,0.03731456746613438,0.03308367181050367
4.102891071930912,0.035183203781355726,0.03731623855648763,0.033085361872034764
4.198459681998174,0.03518489751201396,0.03731779534125367,0.03308704378151358
4.296254370962015,0.03518652147328015,0.03731920662431955,0.033088704997599167
4.396326990860989,0.03518805214896121,0.037320436519891864,0.033090330788150976
4.498730601522785,0.03518946234552504,0.03732144387575358,0.03309190393238886
4.603519498697247,0.035190720725206626,0.03732218163968987,0.03309340438860836
4.710749242844703,0.03519179129039403,0.037322596166126806,0.03309480892439965
4.820476688594853,0.03519263281609809,0.03732262646050545,0.03309609070624722
4.932760014891849,0.035193198227536734,0.03732220335959103,0.03309721884537026
5.047658755841537,0.03519343392022809,0.037321248646827,0.033098157896715226
5.165233832277235,0.035193279020517915,0.037319674103030276,0.03309886730815388
5.285547584060759,0.03519266458519943,0.03731738049422742,0.03309930081719299
5.408663803135845,0.03519151273985396,0.03731425650029692,0.03309940579289407
5.5346477673514825,0.03518973575678871,0.037310177590348714,0.033099122521260495
5.6635662750730935,0.03518723507501394,0.037305004853478055,0.03309838343310985
5.79548768059991,0.03518390026662575,0.03729858379670152,0.03309711227444505
5.930481930407329,0.03517960795627978,0.03729074312553445,0.033095223220608115
6.068620600233459,0.03517422070318697,0.037281293526793206,0.03309261993708176
6.209976933029522,0.035167585858254996,0.037270026477771126,0.03308919459173458
6.3546258777942395,0.03515953441264472,0.03725671311087483,0.0330848268256192
6.502644129312781,0.03514987985809176,0.037241103168006925,0.03307938269215401
6.654110168821354,0.03513841708381657,0.037222924084280844,0.033072713577665655
6.809104305618997,0.035124921339628454,0.03720188024583155,0.033064655119838096
6.9677087196486305,0.03510914729979657,0.03717765247125992,0.03305502614458305
7.130007505069949,0.035090828267235745,0.03714989777027089,0.03304362764616053
7.296086714847262,0.035069675562303324,0.03711824943592738,0.03303024183995112
7.466034406375912,0.035045378144730986,0.037082317528188094,0.0330146313219757
7.639940688171471,0.035017602520567154,0.037041689805543565,0.03299653837389404
7.8178977676464685,0.03498599298807641,0.036995933158127464,0.0329756844565482
7.999999999999982,0.034950172276884885,0.03694459558921878,0.03295176993885597
8.186343938246015,0.034909742632817174,0.03688720878221712,0.03292447411165241
8.377028384407177,0.03486428739639631,0.03682329127676483,0.03289345553752645
8.572154441900832,0.03481337311549172,0.03675235226071073,0.03285835278737991
8.77182556914546,0.034756552221827546,0.03667389596432421,0.032818785611915965
8.976147634415685,0.03469336628689496,0.0365874266201358,0.03277435659114038
9.18522897197504,0.034623349855354715,0.03649245392688253,0.03272465329690235
9.399180439516213,0.03454603483364181,0.03638849893045885,0.03266925099229937
9.618115476939279,0.03446095538885538,0.03627510020996328,0.03260771587738326
9.842150166499026,0.03436765328909733,0.036151820234504375,0.032539608873212375
10.071403294353312,0.0342656835924491,0.0360182517380575,0.03246448991633709
10.305996413545044,0.034154620569195125,0.03587402394691699,0.03238192271400061
10.546053908451228,0.03403406372227843,0.035718808488481586,0.03229147988768323
10.791703060733198,0.0339036437558586,0.03555232481214867,0.03219274841035019
11.043074116823046,0.03376302833262713,0.03537434496335033,0.032085335222295265
11.300300356982001,0.03361192745830262,0.03518469757000759,0.031968872893281666
11.563518165967386,0.033450098337118796,0.034983270926059955,0.03184302518619591
11.832867105345624,0.03327734955523307,0.0347700150878352,0.03170749237087365
12.108489987489628,0.033093544469340555,0.034544942934004036,0.031562016137021295
12.390532951299813,0.032898603704327394,0.03430813017659127,0.03140638396268363
12.679145539688868,0.03269250669500584,0.034059714346782156,0.031240432809407512
12.9744807788714,0.032475292240953364,0.033799892812986294,0.031064052036488477
13.276695259500443,0.03224705807817031,0.03352891991801177,0.03087718545330879
13.58594921969391,0.032007959504621465,0.03324710334590124,0.030679832459211853
13.902406629994958,0.03175820712687926,0.03295479984613661,0.03047204825276063
14.226235280311336,0.0314980638205219,0.03265241045320775,0.03025394312464129
14.55760686887982,0.03122784101658525,0.03234037534313356,0.030025680879010946
14.89669709330289,0.030947894439646486,0.032019168466007816,0.029787476455096756
15.243685743705926,0.030658619429938905,0.031689292085915845,0.029539592843036262
15.59875679806431,0.030360445982610822,0.031351271347726896,0.02928233740445206
15.962098519750983,0.030053833632545258,0.031005648975483992,0.029016057718690123
16.33390355735618,0.02973926630399509,0.03065298019054464,0.028741137080082732
16.71436904683226,0.029417247231739413,0.030293827920329554,0.02845798977047218
17.1036967160178,0.029088294045640797,0.02992875835141725,0.02816705622529628
17.502092991596363,0.02875293409443608,0.029558336864502863,0.027868798201733942
17.90976910854666,0.028411700068263247,0.0291831243739511,0.02756369404477151
18.326941222142125,0.028065125963591495,0.028803674081663115,0.027252234132615495
18.753830522559316,0.02771374341948215,0.028420528643929646,0.02693491656760332
19.19066335215586,0.02735807844088514,0.028034217740904248,0.02661224316348866
19.637671325480177,0.02699864851322567,0.02764525603124206,0.026284715765376318
20.095091452076574,0.026635960102970157,0.02725414146917198,0.025952832925161862
20.56316626215084,0.02627050653117503,0.026861353957616015,0.025617086943435733
21.042143935162983,0.02590276620112419,0.026467354308722407,0.025277961278632178
21.53227843141525,0.02553320115689548,0.02607258348211203,0.024935928315806065
22.033829626705252,0.02516225594687282,0.025677462071031623,0.024591447480770204
22.547063450115548,0.024790356764627156,0.025282390007253006,0.024244963680312925
23.072252025012762,0.024417910839015698,0.024887746456771043,0.02389690604568087
23.609673813330996,0.024045306045589656,0.024493889879970088,0.023547686954267108
24.159613763216036,0.023672910712270793,0.024101158231813195,0.023197701303290366
24.722363460108628,0.023301073593589437,0.023709869279645742,0.02284732600898937
25.298221281346937,0.022930123989429424,0.023320321018305938,0.022496919705300295
25.88749255437016,0.02256037198607901,0.022932792164327722,0.022146822616966048
26.490489718607183,0.022192108799344062,0.02254754271305447,0.02179735658339408
27.107532491136094,0.021825607201464786,0.022164814544417516,0.021448825211208947
27.73894803620242,0.02146112201553064,0.02178483206494533,0.02110151413523094
28.385071138685923,0.02109889066296735,0.02140780287524325,0.020755691369468855
29.04624438160799,0.020739133751445236,0.021033918453711452,0.02041160773157713
29.722818327773684,0.020382055692209328,0.020663354848649326,0.020069497326045314
30.415151705644774,0.020027845337348964,0.02029627337213057,0.01972957807312485
31.123611599542322,0.01967667662890285,0.01993282129013085,0.01939205227213044
31.84857364427965,0.019328709252935374,0.019573132504357375,0.019057107189264597
32.59042222432888,0.018984089292826318,0.019217328222076578,0.018724915661497307
33.349550677626695,0.01864294987699478,0.01886551761097213,0.018395636709284867
34.126361504127274,0.018305411817138326,0.01851779843670169,0.018069416152035535
34.92126657921313,0.017971584233818644,0.01817425768136688,0.017746387221228718
35.7346873720769,0.01764156516687573,0.017834972141576307,0.017426671166976725
36.56705516918985,0.01731544216871309,0.01750000900517694,0.017110377854591262
37.4188113029757,0.016993292878976086,0.017169426406060694,0.01679760634839016
38.2904073858109,0.01667518557955377,0.01684327395673134,0.016488445480562115
39.18230554947552,0.01636117972917948,0.016521593258546807,0.016182974403407997
40.094978690181605,0.01605132647719456,0.016204418389740998,0.015881263123704886
41.028910719309,0.015745669156280853,0.015891776371483146,0.015583373018301984
41.98459681998162,0.015444243754166294,0.015583687612355951,0.015289357330363596
42.96254370962002,0.015147079364470867,0.015280166331731333,0.014999261645930491
43.96326990860976,0.014854198616991518,0.014981220962598114,0.014713124350683678
44.987306015227716,0.014565618087829742,0.014686854534453044,0.014430977066969742
46.035194986972336,0.014281348689847581,0.014397065036907906,0.014152845071289563
47.10749242844689,0.014001396044000962,0.014111845764693846,0.013878747692567013
48.20476688594839,0.013725760832145968,0.013831185644761606,0.013608698691605508
49.327600148918336,0.013454439131947033,0.013555069546184986,0.013342706622211023
50.47658755841522,0.01318742273453788,0.013283478573576127,0.013080775174514173
51.652338322772195,0.012924699445598637,0.013016390344716678,0.012822903501063384
52.855475840607426,0.01266625337051742,0.012753779253099284,0.012569086526288657
54.08663803135828,0.012412065184303211,0.01249561671606102,0.012319315239952973
55.34647767351465,0.012162112386910407,0.012241871409173917,0.012073576975217507
56.63566275073075,0.0119163695446248,0.011992509487539669,0.01183185567194936
57.954876805998914,0.011674808518147013,0.011747494794615457,0.011594132125897372
59.3048193040731,0.011437398677993262,0.011506789059176703,0.011360384224354142
60.68620600233439,0.011204107107815156,0.011270352081000638,0.011130587168911323
62.09976933029502,0.010974898796220928,0.011038141905832183,0.010904713685901457
63.54625877794219,0.010749736817660137,0.010810114990171186,0.010682734225103838
65.0264412931276,0.010528582502912935,0.010586226356397428,0.01046461714727424
66.54110168821333,0.010311395599703907,0.010366429738727735,0.010250328901039999
68.09104305618976,0.010098134423939134,0.010150677720477569,0.010039834189682377
69.67708719648608,0.009888756002044113,0.009938921863078059,0.00983309612830856
71.30007505069926,0.009683216204859246,0.009731112827278659,0.009630076391895535
72.96086714847239,0.00948146987352926,0.009527200486945336,0.009430735354668186
74.66034406375888,0.009283470937802886,0.009327134035844715,0.009235032221254196
76.39940688171447,0.009089172527139817,0.009130862087785699,0.009042925150038812
78.17897767646444,0.008898527075003106,0.008938332770471943,0.008854371369123462
79.99999999999957,0.008711486416697077,0.008749493813401232,0.008669327285273655
81.86343938245989,0.00852800188109334,0.008564292630131,0.008487748586223509
83.7702838440715,0.008348024376570659,0.008382676395213354,0.008309590336686818
85.72154441900804,0.008171504471478394,0.008204592116087627,0.008134807068407655
87.71825569145432,0.007998392469417713,0.008029986700203997,0.007963352864567426
89.76147634415658,0.007828638479620068,0.007858807017637682,0.0077951814388494784
91.8522897197501,0.007662192482688304,0.00769099995944008,0.007630246209447685
93.99180439516184,0.007499004391952324,0.007526512491960584,0.00746850036829093
96.18115476939249,0.007339024110678386,0.007365291707360743,0.007309896945741865
98.42150166498996,0.0071822015853589116,0.007207284870531078,0.00715438887101513
100.7140329435328,0.007028486855298014,0.007052439462609977,0.00700192902854796
103.05996413545013,0.006877830098696926,0.006900703221293797,0.00685247031054399
105.46053908451196,0.0067301816754329405,0.006752024178117454,0.006705965665899997
107.91703060733167,0.006585492166715501,0.0066063506928755325,0.00656236814571436
110.43074116823014,0.00644371241179354,0.006463631485345052,0.006421630945565934
113.00300356981968,0.006304793541879171,0.006323815664462677,0.006283707444742182
115.63518165967352,0.006168687011444221,0.00618685275510115,0.006148551242586237
118.32867105345589,0.006035344627037975,0.006052692722582238,0.006016116192123744
121.08489987489592,0.0059047185737667535,0.005921285995056203,0.005886356431121962
123.90532951299775,0.00577676143956865,0.005792583483871121,0.005759226410725741
126.7914553968883,0.005651426237409725,0.00566653660204882,0.005634680921807388
129.7448077887136,0.005528666425521401,0.00554309728097814,0.0055126751191603585
132.76695259500403,0.005408435925792537,0.005422217985430379,0.005393164543659873
135.8594921969387,0.005290689140423656,0.005303851726996281,0.00527610514250718
139.02406629994917,0.005175380966945237,0.005187952076038697,0.005161453287668025
142.26235280311292,0.005062466811696569,0.005074473172250093,0.005049165792610161
145.57606868879773,0.004951902601856605,0.004963369733899344,0.004939199927439156
148.96697093302842,0.0048436447961134705,0.004854597065847824,0.004831513432526626
152.43685743705876,0.004737650394054645,0.004748111066410554,0.004726064530720023
155.98756798064258,0.00463387694435557,0.0046438682331341186,0.004622811938218433
159.6209851975093,0.004532282551840271,0.004541825667559323,0.004521714874194367
163.33903557356123,0.004432825883483721,0.004441941079032855,0.0044227330692373674
167.143690468322,0.004335466173421938,0.0043441727876288635,0.004325826772691163
171.0369671601774,0.0042401632270323165,0.004248479726238055,0.004230956758952364
175.020929915963,0.004146877424143371,0.00415482144187886,0.00413808433279508
179.09769108546593,0.004055569721429884,0.004063158096282254,0.004047171333782387
183.26941222142057,0.003966201654046461,0.003973450465799072,0.003958180139822374
187.53830522559247,0.0038787353365496847,0.003885659940675991,0.0038710736699233803
191.9066335215579,0.0037931334631562817,0.003799748523743867,0.003785815386200138
196.37671325480105,0.0037093593073822613,0.0037156788285597282,0.0037023692951797644
200.950914520765,0.003627376721105454,0.003633414077041486,0.0036206999484539055
205.63166262150764,0.003547150133091641,0.003552918096632266,0.003540772442720849
210.42143935162906,0.003468644547022242,0.0034741553170292505,0.0034625524192590435
215.32278431415173,0.0033918255390594813,0.0033970907665100063,0.003386006062871258
220.33829626705176,0.0033166592549829462,0.003321690067887403,0.003311100100336418
225.4706345011547,0.0032431124069296187,0.0032479194341225592,0.0032378017984041915
